Time (s),Temperature (K),Temperature error (K)
0.0,970.4554615297881,1.8975867759066347e-10
4.894894894894895,972.0756220229183,0.0024319495164172975
9.78978978978979,973.6716644352548,0.009682450741514904
14.684684684684685,975.2437411252133,0.021685783771618384
19.57957957957958,976.7920039204463,0.038376618940099194
24.474474474474476,978.3166041186812,0.05969001611542456
29.36936936936937,979.817692488556,0.08556142380977451
34.26426426426426,981.2954192704584,0.11592667828798976
39.15915915915916,982.7499341773625,0.1507220026768548
44.054054054054056,984.1813863956651,0.18988400607472117
48.94894894894895,985.5899245860239,0.23334968266147657
53.84384384384384,986.9756968841954,0.2810564108088636
58.73873873873874,988.33885090187,0.3329419521911545
63.633633633633636,989.6795337275123,0.3889444508961864
68.52852852852853,990.9978919271955,0.4490024325367616
73.42342342342343,992.2940715454407,0.5130548033624209
78.31831831831832,993.5682181060528,0.581040849371592
83.21321321321321,994.8204766129589,0.6529002354241211
88.10810810810811,996.0509915510451,0.7285730043541927
93.003003003003,997.2599068869933,0.8079995760836411
97.8978978978979,998.4473660701193,0.8911207467356651
102.7927927927928,999.6135120332099,0.9778776877489427
107.68768768768768,1000.7584871933593,1.0682119449921625
112.58258258258259,1001.8824334528083,1.162065437878971
117.47747747747748,1002.9854921997788,1.2593804584833397
122.37237237237237,1004.067804309314,1.3600996706553674
127.26726726726727,1005.1295101441137,1.4641661091375182
132.16216216216216,1006.1707495553724,1.5715231786812967
137.05705705705705,1007.1916618836159,1.6821146531643822
141.95195195195194,1008.1923859595399,1.7958846747082091
146.84684684684686,1009.1730601048461,1.9127777527960188
151.74174174174175,1010.1338221330794,2.0327387633913747
156.63663663663664,1011.0748093504665,2.155712948057159
161.53153153153153,1011.9961585567513,2.281645913075054
166.42642642642642,1012.8980060460337,2.4104836285655087
171.32132132132134,1013.7804876076063,2.5421724276082123
176.21621621621622,1014.6437385267924,2.6766590053630663
181.11111111111111,1015.4878935857811,2.81389041819168
186.006006006006,1016.3130870644674,2.953814082779377
190.9009009009009,1017.1194527412874,3.096377775257742
195.7957957957958,1017.9071238940573,3.241529630327695
200.6906906906907,1018.6762333008085,3.3892181403831203
205.5855855855856,1019.4269132406271,3.539392154635046
210.48048048048048,1020.1592954944899,3.692000878236383
215.37537537537537,1020.8735113461016,3.8469938714072436
220.27027027027026,1021.5696915827332,4.00432104856083
225.16516516516518,1022.2479664960579,4.163932677429918
230.06006006006007,1022.908465882989,4.325779378193939
234.95495495495496,1023.5513190465181,4.489812122606663
239.84984984984985,1024.1766547965506,4.655982233124505
244.74474474474474,1024.7846014507438,4.824241382035453
249.63963963963965,1025.3752868353447,4.994541590588631
254.53453453453454,1025.9488382860268,5.166835228124507
259.42942942942943,1026.5053826487276,5.341075011205761
264.3243243243243,1027.0450462804847,5.5172140027488155
269.2192192192192,1027.5679550502748,5.69520561115603
274.1141141141141,1028.074234339851,5.875003589448606
279.009009009009,1028.5640090445777,6.056562034400161
283.9039039039039,1029.0374035742702,6.239835385671035
288.7987987987988,1029.4945418540321,6.424778424943294
293.6936936936937,1029.9355473250907,6.611346275056467
298.5885885885886,1030.3605429456359,6.799494399144049
303.4834834834835,1030.7696511916565,6.989178599770714
308.3783783783784,1031.1629940577784,7.180355018070325
313.2732732732733,1031.5406930581012,7.372980132884713
318.16816816816817,1031.9028692270354,7.567010759903226
323.06306306306305,1032.2496431201405,7.7624040508031005
327.95795795795794,1032.5811348149607,7.959117492390639
332.85285285285283,1032.897463911865,8.157108905743208
337.7477477477477,1033.198749534881,8.356336445352083
342.64264264264267,1033.485110332534,8.55675859826613
347.53753753753756,1033.7566644786862,8.75833418323637
352.43243243243245,1034.0135296733692,8.961022349861414
357.32732732732734,1034.2558231436249,9.164782577733801
362.22222222222223,1034.4836616443433,9.36957467558721
367.1171171171171,1034.6971614590968,9.575358780444633
372.012012012012,1034.8964384009794,9.782095356767467
376.9069069069069,1035.081607813444,9.989745195605545
381.8018018018018,1035.2527845711388,10.198269413748163
386.6966966966967,1035.410083080746,10.407629452876032
391.5915915915916,1035.553617281817,10.617787078714302
396.4864864864865,1035.683500647612,10.828704380186542
401.3813813813814,1035.799846185935,11.040343768569754
406.2762762762763,1035.902766439973,11.252667976650457
411.1711711711712,1035.9923734891327,11.465640057881815
416.06606606606607,1036.0687789498768,11.679223385541837
420.96096096096096,1036.1320939765624,11.89338165189269
425.85585585585585,1036.1824292622784,12.108078867341117
430.75075075075074,1036.219895039682,12.323279359599967
435.64564564564563,1036.2446010818355,12.538947772850914
440.5405405405405,1036.2566567030456,12.755049066908306
445.43543543543547,1036.2561707596992,12.971548516384221
450.33033033033036,1036.2432516511005,13.188411709854703
455.22522522522524,1036.2180073203092,13.405604549027275
460.12012012012013,1036.1805452549768,13.62309324790963
465.015015015015,1036.1309724881849,13.84084433197962
469.9099099099099,1036.0693955992815,14.058824637356546
474.8048048048048,1035.995920714719,14.277001309973722
479.6996996996997,1035.9106535088915,14.495341804752357
484.5945945945946,1035.8136992049713,14.713813884776837
489.4894894894895,1035.705162575747,14.932385620471319
494.38438438438436,1035.5851479444605,15.15102538877776
499.2792792792793,1035.4537591856438,15.369701872335312
504.1741741741742,1035.3110997259573,15.588384058661205
509.0690690690691,1035.1572725450262,15.807041239333056
513.9639639639639,1034.9923801762789,16.025643009172676
518.8588588588589,1034.8165247077818,16.244159265431374
523.7537537537538,1034.6298077830797,16.46256020697682
528.6486486486486,1034.4323306020312,16.680816333481395
533.5435435435436,1034.224193921646,16.898898444612247
538.4384384384384,1034.0054980569232,17.116777639222818
543.3333333333334,1033.7763428816884,17.334425314546074
548.2282282282282,1033.5368278294288,17.551813165389458
553.1231231231232,1033.2870518941338,17.768913183331353
558.018018018018,1033.0271136311305,17.985697655919466
562.9129129129129,1032.757111157921,18.2021391658708
567.8078078078078,1032.4771421550192,18.418210590273468
572.7027027027027,1032.1873038667904,18.633885099790326
577.5975975975977,1031.8876931022853,18.84913615786436
582.4924924924925,1031.5784062360797,19.063937519926007
587.3873873873874,1031.2595392091112,19.27826323260235
592.2822822822823,1030.9311875295155,19.49208763292815
597.1771771771772,1030.593446273465,19.705385347559005
602.072072072072,1030.2464100860057,19.918131291986285
606.966966966967,1029.8901731818942,20.1303006697543
611.8618618618618,1029.5248293464347,20.34186897167925
616.7567567567568,1029.1504719363172,20.552811975070604
621.6516516516516,1028.767193880454,20.763105742954224
626.5465465465466,1028.3750876808172,20.972726623297948
631.4414414414415,1027.9742454132763,21.18165124823915
636.3363363363363,1027.5647587284352,21.38985653331467
641.2312312312313,1027.1467188524693,21.597319676692884
646.1261261261261,1026.7202165879623,21.804018158408148
651.021021021021,1026.2853423147462,22.009929739597567
655.9159159159159,1025.842185990734,22.21503246174006
660.8108108108108,1025.390837152761,22.41930464589797
665.7057057057057,1024.9313849174205,22.62272489196098
670.6006006006006,1024.4639179819014,22.825272077892627
675.4954954954954,1023.9885246248239,23.02692535897927
680.3903903903904,1023.5052927070797,23.227664167081688
685.2852852852853,1023.0143096726669,23.427468209889252
690.1801801801802,1022.5156625495281,23.62631747017675
695.0750750750751,1022.009437950388,23.824192205063998
699.96996996997,1021.4957220735901,24.02107294527798
704.8648648648649,1020.9746007039348,24.21694049441809
709.7597597597597,1020.446159213515,24.411775928223896
714.6546546546547,1019.9104825625556,24.605560593845986
719.5495495495495,1019.3676553002491,24.79827610911963
724.4444444444445,1018.8177615655935,24.989904361841543
729.3393393393393,1018.2608850882297,25.180427509049466
734.2342342342342,1017.6971091892789,25.369827976305025
739.1291291291292,1017.1265167821786,25.558088456979586
744.024024024024,1016.5491903735218,25.74519191154329
748.918918918919,1015.9652120638933,25.931121566857367
753.8138138138138,1015.3746635487068,26.11586091546969
758.7087087087087,1014.7776261190422,26.299393714913613
763.6036036036036,1014.1741806624835,26.481703987010235
768.4984984984985,1013.5644076639559,26.662776017174146
773.3933933933934,1012.9483872065618,26.842594353722497
778.2882882882883,1012.3261989724206,27.0211438071878
783.1831831831832,1011.6979222435033,27.198409449634287
788.0780780780781,1011.0636359024717,27.374376613977716
792.972972972973,1010.4234184335144,27.54903089330928
797.8678678678679,1009.7773479231855,27.72235814022289
802.7627627627628,1009.1255020612407,27.894344466146617
807.6576576576576,1008.4679581414746,28.06497624067777
812.5525525525526,1007.8047930625587,28.234240090922185
817.4474474474474,1007.1360833288777,28.402122900837256
822.3423423423424,1006.4619050513681,28.568611810579327
827.2372372372372,1005.7823339483543,28.73369421585494
832.1321321321321,1005.097445346387,28.89735776727664
837.0270270270271,1004.4073141810785,29.05959036972266
841.9219219219219,1003.7120149979427,29.220380181701305
846.8168168168169,1003.0116219532299,29.37971561471954
851.7117117117117,1002.3062088147659,29.537585332656036
856.6066066066066,1001.5958489627883,29.693978251138972
861.5015015015015,1000.8806153907838,29.848883536928234
866.3963963963964,1000.1605807063258,30.002290607302363
871.2912912912913,999.4358171319121,30.15418912945031
876.1861861861862,998.7063965058004,30.304569019868023
881.081081081081,997.9723902828483,30.453420443759835
885.975975975976,997.2338695353482,30.600733814444943
890.8708708708709,996.4909049538655,30.746499792768812
895.7657657657658,995.7435668480767,30.890709286519982
900.6606606606607,994.9919251476047,31.033353449851624
905.5555555555555,994.2360494028583,31.1744236827088
910.4504504504505,993.4760087858675,31.313911630260773
915.3453453453453,992.7118720911227,31.451809182339012
920.2402402402403,991.9437077364097,31.588108472880577
925.1351351351351,991.1715837636494,31.722801879376842
930.03003003003,990.3955678397338,31.855882022328487
934.9249249249249,989.6157272573628,31.987341764705665
939.8198198198198,988.8321289358825,32.11717421141432
944.7147147147148,988.044839422122,32.24537270876829
949.6096096096096,987.2539248912308,32.37193084396743
954.5045045045046,986.4594511475161,32.49684244458182
959.3993993993994,985.6614836252804,32.62010157804222
964.2942942942943,984.8600873896572,32.741702551136555
969.1891891891892,984.055327137451,32.86163990951293
974.0840840840841,983.2472671979718,32.97990843718898
978.978978978979,982.4359715338746,33.0965031560676
983.8738738738739,981.6215037419947,33.21141932545962
988.7687687687687,980.8039270541873,33.32465244161258
993.6636636636637,979.9833043381631,33.43619823724676
998.5585585585586,979.1596980983245,33.5460526810978
1003.4534534534534,978.3331704766067,33.65421197746626
1008.3483483483484,977.5037832533106,33.760672565774236
1013.2432432432432,976.6715978479436,33.86543112012895
1018.1381381381382,975.8366753200544,33.9684845488937
1023.033033033033,974.9990763700722,34.069829994265774
1027.9279279279278,974.1588613401417,34.169464831862044
1032.822822822823,973.3160902149635,34.26738667031171
1037.7177177177177,972.4708226226278,34.36359335085663
1042.6126126126126,971.6231178354547,34.458082946959316
1047.5075075075076,970.7730347708297,34.55085376391824
1052.4024024024025,969.9206319920424,34.6419043384916
1057.2972972972973,969.0659677091218,34.7312334385279
1062.1921921921921,968.2090997796754,34.818840062605474
1067.0870870870872,967.3500857097256,34.90472343967911
1071.981981981982,966.4889826545472,34.988883028735245
1076.8768768768768,965.6258474195049,35.071318518454994
1081.7717717717717,964.7607364608898,35.15202982688553
1086.6666666666667,963.8937058867579,35.231017101119804
1091.5615615615616,963.0248114577658,35.308280716983965
1096.4564564564564,962.15410858801,35.383821278734096
1101.3513513513515,961.2816523458624,35.457639618760716
1106.2462462462463,960.4074974548082,35.529736797301915
1111.1411411411411,959.5316982942832,35.60011410216534
1116.036036036036,958.6543089005115,35.66877304845814
1120.930930930931,957.7753829673419,35.735715378326304
1125.8258258258259,956.8949738470862,35.800943060702274
1130.7207207207207,956.013134551356,35.864458291061155
1135.6156156156155,955.1299177518986,35.92626349118635
1140.5105105105106,954.245375781437,35.986361308943124
1145.4054054054054,953.3595606345058,36.04475461806147
1150.3003003003003,952.4725239682879,36.10144651792809
1155.1951951951953,951.584317103452,36.15644033338644
1160.0900900900901,950.6949910249913,36.209739614546734
1164.984984984985,949.8045963830589,36.261348136603544
1169.8798798798798,948.913183493806,36.31126989966345
1174.7747747747749,948.0208023402193,36.359509128580676
1179.6696696696697,947.1275025729584,36.40607027280212
1184.5645645645645,946.2333335111914,36.45095800622097
1189.4594594594594,945.3383441434353,36.49417722703904
1194.3543543543544,944.4425831283899,36.535733057638126
1199.2492492492493,943.5460987957777,36.5756308444594
1204.144144144144,942.6489391471795,36.61387615789241
1209.0390390390392,941.751151856873,36.65047479217169
1213.933933933934,940.8527842726692,36.68543276528224
1218.8288288288288,939.9538834167492,36.718756318873666
1223.7237237237237,939.0544959865035,36.750451918181646
1228.6186186186187,938.1546683553667,36.78052625195875
1233.5135135135135,937.2544465736563,36.80898623241217
1238.4084084084084,936.3538763694104,36.83583899515
1243.3033033033032,935.4530031492236,36.861091899135054
1248.1981981981983,934.5518719990856,36.88475252664574
1253.093093093093,933.6505276852171,36.906828683244974
1257.987987987988,932.7490146549086,36.92732839775558
1262.882882882883,931.8473770373561,36.94625992224291
1267.7777777777778,930.9456586445,36.963631732004025
1272.6726726726727,930.0439029718609,36.979452525563026
1277.5675675675675,929.1421531993788,36.99373122467272
1282.4624624624626,928.2404521922471,37.00647697432168
1287.3573573573574,927.3388425017538,37.01769914274745
1292.2522522522522,926.4373663661157,37.02740732145373
1297.147147147147,925.5360657113177,37.03561132523309
1302.042042042042,924.6349821519485,37.04232119219368
1306.936936936937,923.73415699204,37.04754718378972
1311.8318318318318,922.8336312259015,37.05129978485528
1316.7267267267268,921.9334455389595,37.05358970364133
1321.6216216216217,921.033640308595,37.05442787185473
1326.5165165165165,920.134255604978,37.053825444699314
1331.4114114114113,919.2353311919088,37.051793800917736
1336.3063063063064,918.3369065276516,37.04834454283463
1341.2012012012012,917.439020765775,37.04348949639911
1346.096096096096,916.5417127559864,37.037240711226815
1350.990990990991,915.645021044971,37.02961046064074
1355.885885885886,914.7489838772289,37.02061124170862
1360.7807807807808,913.8536391959115,37.010255775279155
1365.6756756756756,912.9590246436601,36.99855700601267
1370.5705705705707,912.0651775634421,36.98552810240755
1375.4654654654655,911.1721349993891,36.971182456821275
1380.3603603603603,910.279933697633,36.955533685484475
1385.2552552552552,909.3886101071448,36.93859562850636
1390.1501501501502,908.4982003805703,36.92038234987316
1395.045045045045,907.6087403750694,36.90090813743393
1399.93993993994,906.7202656531509,36.88018750287816
1404.8348348348347,905.8328114835117,36.85823518169795
1409.7297297297298,904.9464128418739,36.835066133138284
1414.6246246246246,904.0611044118205,36.81069554013191
1419.5195195195195,903.1769205856342,36.78513880921656
1424.4144144144145,902.293895465135,36.758411570435136
1429.3093093093094,901.4120628625159,36.7305296772156
1434.2042042042042,900.5314563011817,36.7015092062301
1439.099099099099,899.6521090165853,36.67136645723053
1443.993993993994,898.7740539570642,36.640117952859235
1448.888888888889,897.8973237846815,36.60778043843332
1453.7837837837837,897.0219508760583,36.574370881701064
1458.6786786786786,896.1479673232138,36.539906472566365
1463.5735735735736,895.2754049344021,36.50440462278112
1468.4684684684685,894.4042952349503,36.467882965603735
1473.3633633633633,893.5346694680932,36.43035935541902
1478.2582582582584,892.666558595814,36.39185186731913
1483.1531531531532,891.7999932996779,36.352378796644736
1488.048048048048,890.9350039816736,36.31195865847749
1492.9429429429429,890.071620765046,36.2706101870913
1497.837837837838,889.2098734951384,36.22835233534867
1502.7327327327328,888.3497917402244,36.18520427404842
1507.6276276276276,887.4914047923496,36.141185391216915
1512.5225225225224,886.634741668167,36.09631529134004
1517.4174174174175,885.7798311097742,36.050613794537185
1522.3123123123123,884.9267015855517,36.00410093566676
1527.2072072072071,884.0753812909982,35.95679696336787
1532.1021021021022,883.2258981495704,35.90872233902885
1536.996996996997,882.3782798135186,35.85989773568199
1541.8918918918919,881.5325536647239,35.81034403682107
1546.7867867867867,880.6887468155365,35.76008233513626
1551.6816816816818,879.8468861096127,35.70913393116555
1556.5765765765766,879.0069981227514,35.657520331855096
1561.4714714714714,878.1691091637329,35.60526324902807
1566.3663663663665,877.3332452751534,35.552384597756486
1571.2612612612613,876.4994322342665,35.498906494631676
1576.1561561561562,875.6676955538152,35.44485125592938
1581.051051051051,874.8380604828751,35.39024139566588
1585.945945945946,874.0105520076864,35.33509962354086
1590.8408408408409,873.1851948524944,35.27944884275977
1595.7357357357357,872.3620134803864,35.22331214773732
1600.6306306306305,871.5410320941263,35.16671282166858
1605.5255255255256,870.7222746369958,35.109674333974446
1610.4204204204204,869.9057647936293,35.052220337603444
1615.3153153153153,869.0915259908519,34.99437466619789
1620.2102102102103,868.2795813985159,34.936161331112096
1625.1051051051052,867.4699539303396,34.87760451827612
1630.0,866.6626662447427,34.81872858490952
1634.8948948948948,865.8577407456858,34.759558056068336
1639.78978978979,865.0551995835042,34.700117621032334
1644.6846846846847,864.2550646557503,34.64043212951374
1649.5795795795796,863.4573576080261,34.58052658769903
1654.4744744744744,862.662099834822,34.52042615410154
1659.3693693693695,861.8693124803561,34.46015613523561
1664.2642642642643,861.0790164394089,34.39974198109471
1669.1591591591591,860.2912323581613,34.33920928043825
1674.0540540540542,859.5059806350325,34.27858375587646
1678.948948948949,858.7232814215163,34.217891258749404
1683.8438438438438,857.9431546230204,34.15715776379997
1688.7387387387387,857.1656198997002,34.09640936362859
1693.6336336336337,856.3906966672996,34.03567226293486
1698.5285285285286,855.6184040979866,33.97497277253068
1703.4234234234234,854.8487611211896,33.91433730313379
1708.3183183183182,854.0817864244376,33.85379235892391
1713.2132132132133,853.3174984541944,33.79336453087004
1718.1081081081081,852.5559154166976,33.733080489818555
1723.003003003003,851.7970552787962,33.672966979338966
1727.897897897898,851.0409357687863,33.613050808329724
1732.7927927927929,850.287574377249,33.553358843373736
1737.6876876876877,849.536988357889,33.493918000846975
1742.5825825825825,848.7891947283703,33.4347552387788
1747.4774774774776,848.0442102711532,33.37589754845643
1752.3723723723724,847.3020515343339,33.31737194577561
1757.2672672672672,846.5627348324798,33.259205462341946
1762.162162162162,845.826276247466,33.20142513631146
1767.0570570570571,845.0926916293155,33.14405800298158
