# T_fit 3346 -/+ 25 K
# I_fit 5.012E-04 -/+ 1.705E-05 
Wavelength (nm),Radiance (W/cm^2/ster/nm),Radiance error (W/cm^2/ster/nm)
200.0,8.577440389330913e-09,1.1581472087466112e-09
201.0,9.310702184415789e-09,1.2496239241641095e-09
202.0,1.0097200032470421e-08,1.3470981291812014e-09
203.0,1.0940056097056915e-08,1.4508737756930282e-09
204.0,1.1842525896304003e-08,1.5612647774361076e-09
205.0,1.2808001245042163e-08,1.6785950661330505e-09
206.0,1.384001313685309e-08,1.8031986350325468e-09
207.0,1.494223456058288e-08,1.9354195714092187e-09
208.0,1.6118483245937215e-08,2.0756120760669086e-09
209.0,1.7372724332853234e-08,2.224140471722809e-09
210.0,1.8709072959433864e-08,2.3813791974193918e-09
211.0,2.0131796763332363e-08,2.5477127915616524e-09
212.0,2.1645318291587726e-08,2.7235358615970517e-09
213.0,2.3254217314036377e-08,2.909253040661634e-09
214.0,2.496323303555872e-08,3.105278931380956e-09
215.0,2.6777266202564823e-08,3.3120380374734773e-09
216.0,2.8701381099276218e-08,3.5299646806996296e-09
217.0,3.0740807429525145e-08,3.759502905971141e-09
218.0,3.290094207995909e-08,4.001106373567273e-09
219.0,3.5187350760723475e-08,4.255238237362751e-09
220.0,3.7605769519877385e-08,4.522371010941411e-09
221.0,4.016210612798729e-08,4.802986420826627e-09
222.0,4.2862441329552206e-08,5.09757524700131e-09
223.0,4.571302995810335e-08,5.406637150554959e-09
224.0,4.872030191204749e-08,5.7306804893355906e-09
225.0,5.1890862988519697e-08,6.070222121443728e-09
226.0,5.523149557274292e-08,6.42578719663543e-09
227.0,5.874915918060449e-08,6.797908934787651e-09
228.0,6.24509908523821e-08,7.187128396502769e-09
229.0,6.634430539578608e-08,7.593994237575123e-09
230.0,7.043659547669702e-08,8.019062456176e-09
231.0,7.473553155622248e-08,8.462896127636517e-09
232.0,7.924896167291106e-08,8.926065130517291e-09
233.0,8.398491106919643e-08,9.409145859211618e-09
234.0,8.895158166137365e-08,9.91272093216096e-09
235.0,9.41573513526304e-08,1.0437378885767626e-08
236.0,9.961077318888929e-08,1.0983713862534567e-08
237.0,1.0532057435743097e-07,1.1552325289274784e-08
238.0,1.1129565502849568e-07,1.2143817548352243e-08
239.0,1.1754508704028213e-07,1.2758799637274616e-08
240.0,1.2407811242795852e-07,1.3397884831585066e-08
241.0,1.3090414179754317e-07,1.4061690322163066e-08
242.0,1.380327525456833e-07,1.4750836869570502e-08
243.0,1.454736869265956e-07,1.546594843164328e-08
244.0,1.5323684996760922e-07,1.6207651794810884e-08
245.0,1.6133230723494993e-07,1.6976576203852982e-08
246.0,1.6977028245160346e-07,1.777335298091787e-08
247.0,1.7856115496925986e-07,1.8598615138183228e-08
248.0,1.8771545709653195e-07,1.9452996996924233e-08
249.0,1.972438712858067e-07,2.033713379068723e-08
250.0,2.07157227181256e-07,2.1251661276312883e-08
251.0,2.1746649853068046e-07,2.2197215338375212e-08
252.0,2.2818279996403455e-07,2.3174431585600306e-08
253.0,2.3931738364159975e-07,2.418394495848543e-08
254.0,2.508816357749315e-07,2.5226389325970616e-08
255.0,2.6288707302382975e-07,2.630239708663681e-08
256.0,2.753453387727061e-07,2.7412598759835474e-08
257.0,2.8826819928984425e-07,2.8557622596267882e-08
258.0,3.0166753977315033e-07,2.9738094169398988e-08
259.0,3.1555536028611005e-07,3.0954635981423884e-08
260.0,3.2994377158774983e-07,3.220786706206526e-08
261.0,3.4484499086050406e-07,3.349840257322841e-08
262.0,3.602713373399587e-07,3.482685342163163e-08
263.0,3.762352278505146e-07,3.6193825857361866e-08
264.0,3.9274917225111566e-07,3.759992109984092e-08
265.0,4.098257687952025e-07,3.904573494483048e-08
266.0,4.274776994091421e-07,4.05318573822515e-08
267.0,4.45717724893395e-07,4.2058872231003876e-08
268.0,4.645586800507865e-07,4.3627356758102354e-08
269.0,4.840134687461968e-07,4.523788131703353e-08
270.0,5.040950589020974e-07,4.6891008983847656e-08
271.0,5.248164774343132e-07,4.85872952040012e-08
272.0,5.461908051324577e-07,5.0327287442096664e-08
273.0,5.682311714894616e-07,5.2111524836819064e-08
274.0,5.909507494846498e-07,5.3940537861939325e-08
275.0,6.143627503247768e-07,5.5814848002492135e-08
276.0,6.384804181474714e-07,5.7734967422739976e-08
277.0,6.633170246915034e-07,5.970139865322489e-08
278.0,6.888858639382363e-07,6.171463428766769e-08
279.0,7.152002467286784e-07,6.377515666529209e-08
280.0,7.422734953604545e-07,6.588343759434059e-08
281.0,7.701189381689982e-07,6.803993805740175e-08
282.0,7.987499040972359e-07,7.024510793023217e-08
283.0,8.281797172580011e-07,7.249938572471898e-08
284.0,8.584216914933534e-07,7.480319831078126e-08
285.0,8.89489124934892e-07,7.71569606848957e-08
286.0,9.213952945692109e-07,7.956107570330591e-08
287.0,9.541534508124268e-07,8.201593387020073e-08
288.0,9.877768120977684e-07,8.45219130920814e-08
289.0,1.022278559480119e-06,8.707937848171705e-08
290.0,1.0576718312613042e-06,8.968868212508713e-08
291.0,1.0939697176398684e-06,9.2350162908342e-08
292.0,1.1311852553890067e-06,9.506414631627025e-08
293.0,1.1693314225662763e-06,9.783094425257523e-08
294.0,1.2084211332585302e-06,1.0065085487589618e-07
295.0,1.248467232365541e-06,1.0352416243240669e-07
296.0,1.2894824904256829e-06,1.0645113711139743e-07
297.0,1.331479598486841e-06,1.0943203489328145e-07
298.0,1.3744711630258223e-06,1.1246709743909386e-07
299.0,1.418469700919254e-06,1.1555655193165329e-07
300.0,1.4634876344690217e-06,1.1870061100372892e-07
301.0,1.5095372864850948e-06,1.2189947260555464e-07
302.0,1.5566308754285878e-06,1.251533199168412e-07
303.0,1.6047805106176904e-06,1.2846232127576097e-07
304.0,1.653998187499179e-06,1.3182663008070947e-07
305.0,1.7042957829879575e-06,1.3524638473384307e-07
306.0,1.7556850508770143e-06,1.3872170859646444e-07
307.0,1.808177617320237e-06,1.422527099190589e-07
308.0,1.8617849763901784e-06,1.458394818112858e-07
309.0,1.916518485713008e-06,1.49482102222274e-07
310.0,1.9723893621825946e-06,1.531806339030265e-07
311.0,2.0294086777557355e-06,1.569351243913229e-07
312.0,2.0875873553302985e-06,1.6074560603444346e-07
313.0,2.1469361647080683e-06,1.6461209596887503e-07
314.0,2.2074657186439195e-06,1.6853459613445175e-07
315.0,2.2691864689829007e-06,1.7251309330362706e-07
316.0,2.3321087028865992e-06,1.7654755910256094e-07
317.0,2.3962425391502754e-06,1.8063795007109149e-07
318.0,2.4615979246119207e-06,1.8478420766571772e-07
319.0,2.528184630654493e-06,1.889862583573968e-07
320.0,2.596012249802384e-06,1.932440136624701e-07
321.0,2.6650901924130913e-06,1.9755737021886912e-07
322.0,2.7354276834650624e-06,2.0192620987199442e-07
323.0,2.807033759442516e-06,2.063503997246553e-07
324.0,2.8799172653178584e-06,2.1082979226864177e-07
325.0,2.9540868516325643e-06,2.1536422545591317e-07
326.0,3.0295509716768626e-06,2.1995352279600665e-07
327.0,3.106317878768873e-06,2.2459749349149452e-07
328.0,3.184395623633498e-06,2.2929593251903972e-07
329.0,3.263792051881429e-06,2.3404862077711157e-07
330.0,3.344514801588507e-06,2.3885532521717553e-07
331.0,3.4265713009756265e-06,2.437157989289909e-07
332.0,3.509968766189237e-06,2.4862978135426705e-07
333.0,3.5947141991824784e-06,2.5359699836588293e-07
334.0,3.680814385696943e-06,2.586171624605062e-07
335.0,3.7682758933448763e-06,2.636899728814216e-07
336.0,3.857105069791672e-06,2.68815115808721e-07
337.0,3.9473080410384385e-06,2.739922644797159e-07
338.0,4.038890709804215e-06,2.792210794148181e-07
339.0,4.131858754007623e-06,2.8450120855155993e-07
340.0,4.226217625347374e-06,2.8983228742641436e-07
341.0,4.3219725479811334e-06,2.95213939376311e-07
342.0,4.4191285173023905e-06,3.0064577570242924e-07
343.0,4.517690298814455e-06,3.0612739585256955e-07
344.0,4.617662427101084e-06,3.1165838765253724e-07
345.0,4.7190492048930084e-06,3.1723832745234436e-07
346.0,4.8218547022295575e-06,3.2286678036882546e-07
347.0,4.9260827557145735e-06,3.2854330047249674e-07
348.0,5.031736967865883e-06,3.342674309676053e-07
349.0,5.138820706557206e-06,3.4003870446153097e-07
350.0,5.247337104551785e-06,3.458566430796041e-07
